id,C,D,E,F,G,H,I,J,K,L,M,N,O,P,Q,R,S,T,U,W,X,Y,Z,AA,AA,AA,AA,AA,AA,AA,AA,AA,AA
2.00,-2.15,-2.19,-2.06,-2.30,-2.21,-2.15,-2.35,-2.37,-2.55,-2.16,-2.20,-2.18,-2.12,-2.18,-2.61,-2.16,-2.67,-2.22,-2.67,-2.23,-2.71,-2.22,-2.23,-2.65,-2.17,-2.25,-2.59,-2.65,-2.56,-2.64,-2.54,-2.55,-2.55
3.00,-3.24,-3.28,-3.16,-3.45,-3.31,-3.22,-3.51,-3.53,-3.86,-3.24,-3.31,-3.28,-3.21,-3.27,-3.92,-3.25,-4.02,-3.32,-4.00,-3.35,-4.11,-3.31,-3.35,-4.02,-3.28,-3.38,-3.89,-4.00,-3.90,-4.01,-3.85,-3.86,-3.86
4.00,-4.34,-4.38,-4.27,-4.58,-4.38,-4.30,-4.67,-4.71,-5.32,-4.36,-4.40,-4.36,-4.29,-4.35,-5.37,-4.33,-5.47,-4.43,-5.44,-4.46,-5.58,-4.42,-4.48,-5.45,-4.37,-4.51,-5.36,-5.43,-5.36,-5.48,-5.28,-5.29,-5.29
4.99,-5.40,-5.47,-5.36,-5.74,-5.50,-5.40,-5.83,-5.86,-6.76,-5.42,-5.51,-5.45,-5.37,-5.46,-6.78,-5.41,-6.91,-5.53,-6.88,-5.56,-7.02,-5.50,-5.59,-6.89,-5.50,-5.65,-6.86,-6.85,-6.87,-6.90,-6.76,-6.78,-6.78
5.99,-6.49,-6.56,-6.46,-6.89,-6.59,-6.48,-6.99,-7.04,-8.45,-6.51,-6.62,-6.55,-6.47,-6.55,-8.45,-6.49,-8.68,-6.65,-8.60,-6.67,-8.70,-6.61,-6.71,-8.58,-6.61,-6.78,-8.62,-8.42,-8.70,-8.79,-8.44,-8.51,-8.51
6.99,-7.58,-7.66,-7.57,-8.05,-7.69,-7.57,-8.16,-8.20,-10.36,-7.60,-7.73,-7.65,-7.56,-7.65,-10.44,-7.57,-10.72,-7.76,-10.54,-7.79,-10.70,-7.72,-7.84,-10.78,-7.74,-7.92,-9.22,-9.75,-8.47,-9.79,-8.81,-8.52,-8.52
7.99,-8.68,-8.75,-8.69,-9.21,-8.81,-8.67,-9.33,-9.38,-9.96,-8.70,-8.84,-8.75,-8.66,-8.75,-10.28,-8.67,-10.16,-8.88,-10.14,-8.90,-10.72,-8.83,-8.97,-10.39,-8.87,-9.07,-8.56,-9.41,-8.28,-9.18,-8.58,-8.62,-8.62
8.99,-9.78,-9.86,-9.81,-10.37,-9.91,-9.77,-10.50,-10.56,-9.94,-9.80,-9.96,-9.86,-9.77,-9.86,-10.90,-9.76,-10.16,-10.00,-10.46,-10.02,-11.62,-9.94,-10.10,-10.84,-10.00,-10.22,-9.36,-10.03,-9.58,-9.67,-9.64,-9.52,-9.52
9.98,-10.88,-10.97,-10.95,-11.53,-11.02,-10.87,-11.68,-11.76,-9.85,-10.91,-11.08,-10.98,-10.86,-10.99,-9.88,-10.87,-9.59,-11.14,-10.36,-11.16,-10.92,-11.07,-11.24,-9.96,-11.13,-11.37,-10.48,-11.25,-10.72,-10.77,-10.64,-10.90,-10.90
10.98,-12.01,-12.09,-12.08,-12.72,-12.14,-11.98,-12.86,-12.94,-11.40,-12.03,-12.22,-12.10,-11.97,-12.11,-11.33,-11.98,-11.73,-12.27,-12.17,-12.30,-12.68,-12.19,-12.40,-11.85,-12.28,-12.53,-12.22,-12.32,-12.57,-12.59,-12.28,-12.59,-12.59
11.98,-13.12,-13.22,-13.22,-13.91,-13.28,-13.10,-14.05,-14.15,-12.99,-13.14,-13.36,-13.23,-13.10,-13.24,-12.80,-13.09,-13.00,-13.42,-13.57,-13.45,-13.96,-13.32,-13.55,-13.08,-13.43,-13.71,-12.98,-13.30,-13.39,-13.84,-13.16,-13.29,-13.29
12.98,-14.26,-14.35,-14.40,-15.10,-14.41,-14.23,-15.25,-15.36,-14.46,-14.28,-14.51,-14.36,-14.23,-14.37,-14.16,-14.21,-14.35,-14.57,-15.00,-14.59,-15.68,-14.47,-14.71,-14.68,-14.59,-14.89,-14.46,-14.73,-14.74,-15.51,-14.59,-14.70,-14.70
13.98,-15.41,-15.50,-15.57,-16.31,-15.55,-15.37,-16.46,-16.58,-15.05,-15.43,-15.66,-15.52,-15.37,-15.52,-14.70,-15.34,-15.10,-15.74,-15.71,-15.76,-16.32,-15.63,-15.89,-15.38,-15.76,-16.08,-15.28,-15.55,-15.64,-15.92,-15.41,-15.61,-15.61
14.97,-16.55,-16.65,-16.76,-17.52,-16.71,-16.52,-17.69,-17.81,-16.47,-16.58,-16.84,-16.68,-16.53,-16.69,-15.72,-16.49,-16.46,-16.90,-16.95,-16.93,-17.36,-16.78,-17.08,-16.44,-16.94,-17.28,-16.76,-17.16,-17.17,-17.37,-16.99,-17.10,-17.10
15.97,-17.71,-17.83,-17.96,-18.77,-17.86,-17.69,-18.93,-19.08,-17.99,-17.75,-18.01,-17.85,-17.69,-17.86,-17.22,-17.65,-17.96,-18.09,-18.55,-18.12,-19.04,-17.96,-18.27,-17.97,-18.14,-18.49,-18.40,-18.85,-18.88,-18.99,-18.60,-18.72,-18.72
16.97,-18.89,-19.00,-19.17,-20.02,-19.06,-18.87,-20.16,-20.34,-19.24,-18.91,-19.21,-19.04,-18.86,-19.05,-18.38,-18.81,-19.20,-19.29,-19.87,-19.31,-20.20,-19.15,-19.49,-19.08,-19.36,-19.73,-19.53,-19.99,-19.99,-20.16,-19.73,-19.81,-19.81
17.97,-20.08,-20.21,-20.40,-21.28,-20.25,-20.04,-21.43,-21.62,-20.62,-20.11,-20.42,-20.23,-20.07,-20.25,-19.63,-20.01,-20.58,-20.51,-21.32,-20.53,-21.65,-20.36,-20.73,-20.49,-20.58,-20.97,-20.83,-21.27,-21.33,-21.70,-21.02,-21.11,-21.11
18.97,-21.28,-21.40,-21.67,-22.56,-21.45,-21.24,-22.71,-22.92,-22.20,-21.31,-21.64,-21.44,-21.25,-21.46,-21.06,-21.19,-22.19,-21.74,-22.96,-21.75,-23.40,-21.57,-21.96,-21.94,-21.81,-22.21,-22.66,-23.06,-23.21,-23.58,-22.91,-22.97,-22.97
19.96,-22.50,-22.62,-22.93,-23.86,-22.68,-22.46,-24.00,-24.23,-23.79,-22.53,-22.90,-22.66,-22.49,-22.68,-22.46,-22.40,-23.74,-22.97,-24.58,-23.00,-25.16,-22.79,-23.21,-23.48,-23.07,-23.48,-24.34,-24.74,-24.84,-25.28,-24.45,-24.47,-24.47
20.96,-23.75,-23.87,-24.22,-25.19,-23.92,-23.70,-25.33,-25.59,-25.41,-23.77,-24.15,-23.92,-23.72,-23.94,-23.98,-23.63,-25.39,-24.25,-26.34,-24.25,-27.02,-24.06,-24.49,-25.04,-24.34,-24.79,-25.71,-26.18,-26.25,-26.61,-25.63,-25.72,-25.72
21.96,-25.02,-25.12,-25.54,-26.52,-25.18,-24.97,-26.66,-26.95,-27.06,-25.04,-25.42,-25.20,-25.00,-25.20,-25.49,-24.88,-27.04,-25.53,-28.12,-25.55,-28.83,-25.33,-25.82,-26.61,-25.64,-26.10,-26.96,-27.47,-27.29,-27.76,-26.57,-26.39,-26.39
22.96,-26.31,-26.42,-26.89,-27.88,-26.45,-26.26,-28.02,-28.34,-28.78,-26.32,-26.76,-26.48,-26.28,-26.51,-27.03,-26.16,-28.71,-26.84,-29.90,-26.84,-30.47,-26.63,-27.13,-28.22,-26.96,-27.44,-27.78,-28.51,-28.12,-28.48,-26.91,-26.76,-26.76
23.96,-27.61,-27.73,-28.26,-29.28,-27.76,-27.56,-29.39,-29.75,-30.43,-27.62,-28.07,-27.80,-27.58,-27.83,-28.54,-27.46,-30.32,-28.18,-31.62,-28.18,-31.86,-27.96,-28.46,-29.63,-28.31,-28.80,-28.39,-29.13,-28.57,-29.03,-27.55,-27.48,-27.48
24.95,-28.91,-29.03,-29.59,-30.67,-29.09,-28.87,-30.79,-31.18,-32.10,-28.96,-29.39,-29.11,-28.88,-29.14,-30.21,-28.75,-31.97,-29.52,-33.36,-29.51,-33.07,-29.26,-29.85,-31.22,-29.64,-30.18,-29.18,-29.99,-29.28,-29.61,-28.18,-28.09,-28.09
25.95,-30.26,-30.42,-31.04,-32.13,-30.42,-30.22,-32.19,-32.67,-33.89,-30.28,-30.78,-30.46,-30.27,-30.47,-31.89,-30.07,-33.64,-30.88,-34.92,-30.87,-34.00,-30.63,-31.23,-32.86,-31.05,-31.57,-30.01,-30.82,-30.15,-30.69,-29.13,-28.93,-28.93
26.95,-31.67,-31.80,-32.52,-33.60,-31.82,-31.62,-33.67,-34.17,-35.42,-31.67,-32.18,-31.87,-31.65,-31.88,-33.35,-31.44,-35.13,-32.30,-36.11,-32.29,-34.77,-32.02,-32.68,-34.15,-32.49,-33.04,-30.67,-31.77,-30.76,-31.24,-29.94,-29.71,-29.71
27.95,-33.09,-33.20,-34.04,-35.13,-33.20,-33.03,-35.16,-35.73,-37.14,-33.10,-33.65,-33.28,-33.09,-33.32,-34.75,-32.86,-36.60,-33.74,-37.41,-33.74,-35.86,-33.47,-34.12,-35.25,-33.93,-34.50,-31.94,-33.01,-32.19,-32.63,-31.27,-31.02,-31.02
28.95,-34.57,-34.66,-35.58,-36.67,-34.67,-34.49,-36.69,-37.32,-38.73,-34.54,-35.13,-34.73,-34.54,-34.79,-36.29,-34.30,-38.51,-35.22,-38.67,-35.21,-37.61,-34.92,-35.63,-36.87,-35.44,-36.02,-33.28,-34.39,-33.55,-33.90,-32.60,-32.31,-32.31
29.94,-36.07,-36.15,-37.15,-38.25,-36.15,-35.97,-38.25,-38.93,-40.80,-36.03,-36.65,-36.23,-36.03,-36.30,-38.40,-35.76,-40.30,-36.76,-38.75,-36.73,-37.73,-36.42,-37.16,-38.90,-36.98,-37.58,-33.64,-34.74,-33.83,-34.22,-33.01,-32.77,-32.77
30.94,-37.58,-37.68,-38.78,-39.90,-37.67,-37.51,-39.86,-40.59,-42.64,-37.56,-38.20,-37.79,-37.57,-37.83,-40.38,-37.27,-41.25,-38.34,-38.21,-38.30,-37.67,-37.96,-38.75,-40.58,-38.55,-39.17,-34.66,-35.64,-34.94,-35.31,-34.11,-33.93,-33.93
31.94,-39.19,-39.27,-40.44,-41.55,-39.25,-39.11,-41.50,-42.26,-43.72,-39.14,-39.84,-39.37,-39.18,-39.42,-42.57,-38.85,-41.56,-39.94,-37.71,-39.91,-37.56,-39.55,-40.38,-42.07,-40.17,-40.83,-36.07,-36.93,-36.47,-36.84,-35.56,-35.43,-35.43
32.94,-40.82,-40.92,-42.11,-43.29,-40.85,-40.73,-43.20,-43.99,-44.25,-40.77,-41.47,-40.99,-40.79,-41.08,-44.12,-40.43,-41.62,-41.59,-37.75,-41.55,-38.37,-41.18,-42.06,-42.91,-41.85,-42.52,-37.59,-38.45,-38.20,-38.51,-37.14,-37.03,-37.03
33.94,-42.51,-42.59,-43.85,-45.07,-42.54,-42.43,-44.94,-45.74,-44.91,-42.42,-43.20,-42.67,-42.48,-42.76,-45.26,-42.11,-41.83,-43.32,-38.33,-43.26,-39.72,-42.90,-43.81,-43.88,-43.55,-44.26,-39.21,-40.11,-40.04,-40.31,-38.80,-38.71,-38.71
34.93,-44.30,-44.37,-45.60,-46.92,-44.28,-44.19,-46.76,-47.53,-44.71,-44.15,-44.99,-44.42,-44.24,-44.53,-48.05,-43.83,-41.83,-45.12,-39.16,-45.02,-40.76,-44.66,-45.62,-46.07,-45.34,-46.08,-40.90,-41.75,-41.70,-41.96,-40.52,-40.41,-40.41
35.93,-46.11,-46.21,-47.42,-48.80,-46.10,-46.04,-48.60,-49.37,-43.78,-45.97,-46.83,-46.23,-46.07,-46.36,-50.44,-45.62,-42.20,-46.98,-40.54,-46.87,-42.63,-46.48,-47.49,-47.28,-47.20,-48.00,-42.80,-43.57,-43.51,-43.77,-42.43,-42.33,-42.33
36.93,-47.97,-48.10,-49.32,-50.77,-47.96,-47.93,-50.54,-51.23,-43.40,-47.86,-48.76,-48.11,-47.94,-48.25,-51.73,-47.44,-43.13,-48.86,-42.23,-48.78,-44.77,-48.37,-49.43,-47.83,-49.14,-49.95,-44.79,-45.49,-45.64,-45.85,-44.43,-44.33,-44.33
37.93,-49.90,-49.93,-51.28,-52.80,-49.83,-49.84,-52.54,-53.17,-43.80,-49.76,-50.76,-50.09,-49.91,-50.24,-51.57,-49.39,-44.47,-50.81,-44.03,-50.76,-46.73,-50.32,-51.41,-48.73,-51.08,-51.95,-46.89,-47.53,-47.83,-47.98,-46.50,-46.39,-46.39
38.93,-51.97,-51.98,-53.30,-54.93,-51.82,-51.77,-54.62,-55.14,-44.88,-51.75,-52.83,-52.12,-51.98,-52.31,-52.69,-51.42,-46.02,-52.95,-45.84,-52.86,-48.58,-52.36,-53.50,-50.05,-53.16,-54.04,-49.01,-49.65,-50.07,-50.14,-48.63,-48.48,-48.48
39.92,-54.16,-54.18,-55.39,-57.13,-53.95,-53.98,-56.79,-57.17,-45.98,-53.90,-55.04,-54.31,-54.19,-54.54,-52.17,-53.58,-47.68,-55.19,-47.78,-55.05,-50.32,-54.54,-55.74,-51.56,-55.38,-56.30,-51.15,-51.87,-52.22,-52.37,-50.69,-50.56,-50.56
40.92,-56.57,-56.54,-57.56,-59.42,-56.25,-56.31,-59.05,-59.29,-47.31,-56.18,-57.44,-56.62,-56.56,-56.87,-51.06,-55.86,-49.60,-57.59,-49.92,-57.39,-51.73,-56.88,-58.15,-52.97,-57.70,-58.70,-53.32,-53.96,-54.36,-54.45,-52.78,-52.47,-52.47
41.92,-59.09,-59.02,-59.86,-61.84,-58.67,-58.80,-61.43,-61.50,-48.73,-58.59,-59.91,-59.04,-59.01,-59.31,-50.94,-58.22,-51.72,-60.08,-52.24,-59.83,-53.39,-59.33,-60.66,-54.06,-60.14,-61.17,-55.53,-56.05,-56.62,-56.61,-54.80,-54.47,-54.47
42.92,-61.72,-61.65,-62.25,-64.39,-61.16,-61.36,-63.91,-63.91,-50.48,-61.04,-62.54,-61.59,-61.63,-61.93,-51.93,-60.75,-54.00,-62.77,-54.66,-62.43,-55.45,-61.93,-63.32,-55.39,-62.75,-63.78,-57.75,-58.34,-58.74,-58.70,-56.90,-56.49,-56.49
43.92,-64.49,-64.49,-64.74,-67.05,-63.90,-64.14,-66.52,-66.34,-52.57,-63.69,-65.40,-64.39,-64.47,-64.74,-53.21,-63.48,-56.23,-65.64,-57.08,-65.24,-57.85,-64.69,-66.18,-57.29,-65.53,-66.68,-59.96,-60.89,-60.99,-60.87,-59.11,-58.62,-58.62
44.91,-67.42,-67.55,-67.31,-69.81,-66.67,-66.94,-69.27,-68.86,-54.76,-66.49,-68.49,-67.47,-67.55,-67.80,-54.67,-66.37,-58.66,-68.70,-59.58,-68.27,-60.40,-67.63,-69.21,-58.97,-68.50,-69.80,-62.28,-63.21,-63.05,-62.94,-61.32,-60.66,-60.66
45.91,-70.74,-70.98,-69.92,-72.67,-69.91,-70.23,-72.15,-71.53,-57.08,-69.69,-71.84,-70.83,-70.96,-71.13,-56.71,-69.56,-61.09,-72.13,-62.36,-71.68,-63.25,-70.97,-72.66,-61.01,-71.83,-73.22,-64.93,-65.84,-65.95,-65.77,-64.07,-63.43,-63.43
46.91,-74.30,-74.49,-72.52,-75.59,-73.34,-73.59,-75.15,-74.34,-59.53,-72.85,-75.31,-74.23,-74.58,-74.57,-58.84,-72.98,-63.77,-75.84,-65.20,-75.20,-66.16,-74.42,-76.22,-62.99,-75.31,-76.89,-67.78,-68.40,-68.67,-68.57,-66.77,-66.04,-66.04
47.91,-78.27,-78.17,-75.16,-78.51,-76.86,-76.82,-78.21,-77.38,-62.05,-76.47,-79.12,-77.89,-78.57,-78.31,-61.19,-76.76,-66.63,-80.03,-68.06,-79.04,-68.85,-78.24,-80.10,-65.08,-78.94,-80.99,-70.55,-71.35,-71.45,-71.35,-69.39,-68.42,-68.42
48.91,-82.63,-82.24,-78.05,-81.41,-80.69,-80.94,-81.31,-80.53,-64.83,-80.20,-82.94,-81.69,-82.48,-82.11,-63.78,-80.46,-69.68,-84.61,-71.08,-83.06,-71.07,-82.37,-84.03,-67.45,-82.75,-85.10,-73.50,-74.47,-74.01,-73.66,-71.80,-70.47,-70.47
49.90,-86.82,-86.37,-81.09,-84.22,-83.89,-84.48,-84.30,-83.85,-67.61,-84.08,-86.91,-84.66,-85.27,-85.36,-66.38,-83.47,-72.94,-88.43,-74.04,-86.20,-73.32,-85.98,-87.33,-69.77,-86.12,-88.53,-76.44,-77.01,-75.81,-75.41,-73.66,-72.06,-72.06
50.90,-90.95,-90.14,-84.13,-86.83,-86.65,-87.75,-87.02,-87.32,-70.44,-87.60,-90.10,-87.16,-87.36,-88.02,-69.26,-86.31,-76.48,-91.08,-76.93,-89.42,-76.06,-89.07,-90.70,-72.30,-89.60,-91.65,-78.36,-78.45,-76.70,-76.08,-74.74,-73.36,-73.36
51.90,-96.18,-95.41,-87.04,-89.03,-91.75,-93.72,-89.18,-90.90,-73.04,-92.83,-95.92,-92.13,-92.71,-93.16,-72.63,-91.74,-80.23,-96.73,-79.86,-95.04,-79.71,-94.77,-96.25,-74.87,-95.06,-97.24,-79.27,-79.39,-78.10,-77.96,-76.20,-75.11,-75.11
52.90,-103.58,-101.73,-89.52,-90.73,-97.31,-100.52,-90.57,-94.38,-75.62,-99.27,-102.71,-98.49,-99.46,-99.71,-75.99,-98.21,-83.43,-104.43,-82.83,-101.74,-83.10,-101.69,-102.79,-77.58,-101.53,-103.98,-80.78,-80.86,-80.98,-81.22,-78.34,-77.39,-77.39
53.90,-111.64,-108.48,-91.10,-92.07,-104.13,-107.47,-91.17,-97.72,-78.38,-106.41,-109.69,-105.40,-106.08,-106.92,-78.72,-105.42,-86.92,-112.09,-85.85,-109.12,-86.07,-109.26,-109.51,-79.94,-107.65,-110.84,-81.69,-81.92,-82.85,-83.08,-79.04,-78.55,-78.55
54.89,-121.73,-114.36,-91.39,-93.41,-111.64,-113.54,-91.46,-100.75,-80.60,-114.74,-115.63,-112.73,-111.27,-114.77,-81.89,-113.27,-90.02,-119.82,-87.26,-117.16,-89.02,-118.72,-117.54,-82.57,-115.66,-120.19,-80.43,-81.48,-84.72,-84.85,-78.91,-79.28,-79.28
55.89,-130.52,-114.93,-91.28,-95.32,-115.82,-116.99,-92.27,-103.17,-82.57,-123.69,-117.57,-119.47,-110.43,-121.74,-85.98,-121.08,-92.12,-122.79,-87.97,-124.63,-93.49,-127.19,-121.98,-85.72,-123.75,-129.68,-79.24,-80.95,-87.19,-87.14,-79.05,-80.30,-80.30
56.89,-87.68,-88.02,-92.12,-98.48,-102.46,-100.24,-94.56,-105.19,-84.65,-132.18,-97.83,-115.78,-82.85,-112.05,-90.24,-116.17,-92.48,-80.72,-88.41,-121.72,-97.42,-100.19,-95.71,-89.03,-124.36,-123.72,-80.35,-82.73,-90.62,-90.62,-80.97,-82.66,-82.66
57.89,-40.94,-49.10,-94.45,-103.17,-63.52,-57.67,-98.60,-107.37,-86.75,-109.34,-56.41,-66.59,-57.22,-60.74,-93.13,-62.43,-92.27,-52.67,-87.46,-64.42,-96.16,-53.25,-64.76,-92.43,-81.62,-66.85,-81.48,-84.68,-93.26,-93.64,-82.56,-84.42,-84.42
58.89,-48.34,-51.43,-98.32,-109.33,-58.55,-56.76,-104.18,-110.64,-88.89,-56.29,-56.03,-52.12,-58.38,-52.58,-94.30,-49.86,-89.98,-57.05,-87.54,-54.44,-90.57,-56.63,-63.85,-95.86,-57.04,-55.01,-84.19,-88.05,-96.48,-97.60,-85.44,-86.97,-86.97
59.88,-59.15,-61.33,-103.59,-116.62,-65.05,-63.93,-110.88,-115.95,-91.41,-58.68,-66.19,-61.24,-66.91,-62.75,-94.52,-59.12,-89.50,-66.93,-90.47,-66.33,-88.53,-67.23,-72.09,-99.23,-64.07,-64.49,-85.74,-90.67,-96.21,-98.05,-86.26,-86.70,-86.70
60.88,-70.32,-71.65,-109.96,-124.90,-73.97,-72.33,-118.47,-123.39,-93.81,-70.51,-76.10,-71.62,-75.50,-73.41,-96.03,-69.07,-91.09,-75.88,-93.70,-77.75,-91.05,-76.90,-80.92,-102.54,-73.47,-74.63,-86.92,-92.12,-96.10,-96.73,-86.98,-86.70,-86.70
61.88,-80.77,-81.27,-117.07,-134.03,-83.40,-81.50,-126.80,-132.30,-96.41,-82.96,-85.80,-82.04,-84.60,-84.00,-98.53,-79.59,-94.06,-85.54,-97.74,-88.59,-96.06,-86.56,-90.62,-105.61,-83.80,-85.43,-90.93,-95.93,-99.99,-98.71,-91.01,-90.18,-90.18
62.88,-90.63,-90.91,-124.81,-143.95,-92.87,-91.04,-135.81,-142.03,-100.69,-94.73,-95.49,-92.45,-93.86,-94.36,-102.73,-89.91,-100.04,-95.52,-104.13,-99.33,-102.66,-96.42,-100.57,-108.16,-94.31,-96.18,-97.25,-101.98,-105.83,-103.75,-97.30,-95.92,-95.92
63.88,-99.96,-100.24,-133.10,-154.54,-102.20,-100.63,-145.46,-152.38,-106.58,-105.75,-105.16,-102.18,-102.96,-104.23,-109.60,-99.78,-108.12,-105.32,-111.95,-109.77,-110.15,-106.21,-110.53,-110.64,-104.49,-106.42,-104.39,-108.97,-112.28,-109.36,-104.14,-102.21,-102.21
64.87,-109.11,-109.26,-142.00,-165.71,-111.23,-109.89,-155.72,-163.18,-113.55,-116.25,-114.56,-111.47,-111.88,-113.81,-118.11,-109.24,-117.10,-114.90,-120.50,-119.79,-118.88,-115.76,-120.22,-115.09,-114.12,-116.23,-111.81,-116.35,-119.97,-116.57,-111.24,-108.68,-108.68
65.87,-118.32,-118.31,-151.44,-177.35,-120.36,-119.20,-166.52,-174.27,-121.22,-126.61,-123.88,-120.71,-120.81,-123.38,-127.13,-118.64,-126.70,-124.47,-129.49,-129.83,-128.15,-125.23,-129.83,-121.54,-123.51,-125.87,-119.55,-124.09,-128.97,-125.29,-118.71,-116.05,-116.05
66.87,-127.81,-127.65,-161.42,170.67,-129.76,-128.82,-177.82,174.44,-129.70,-137.16,-133.52,-130.24,-130.13,-133.19,-136.77,-128.35,-136.79,-134.34,-139.11,-140.11,-137.92,-135.09,-139.78,-129.54,-133.09,-135.67,-127.94,-132.57,-138.82,-134.96,-127.14,-124.77,-124.77
67.87,-137.69,-137.44,-171.83,158.52,-139.54,-138.83,170.52,163.02,-139.03,-147.97,-143.52,-140.14,-139.88,-143.40,-147.01,-138.45,-147.27,-144.57,-149.47,-150.75,-148.29,-145.35,-150.07,-138.72,-142.92,-145.70,-137.43,-142.10,-149.12,-144.94,-136.66,-134.25,-134.25
68.87,-147.98,-147.70,177.38,146.43,-149.73,-149.22,158.65,151.57,-149.11,-159.08,-153.92,-150.40,-150.10,-153.97,-157.80,-148.96,-158.19,-155.21,-160.44,-161.69,-159.15,-156.02,-160.71,-148.58,-153.05,-156.01,-147.64,-152.27,-159.75,-155.24,-146.78,-144.24,-144.24
69.86,-158.58,-158.37,166.34,134.59,-160.27,-159.96,146.74,140.18,-159.68,-170.42,-164.63,-161.00,-160.65,-164.89,-168.97,-159.81,-169.45,-166.16,-171.77,-172.89,-170.28,-167.01,-171.58,-158.74,-163.45,-166.58,-158.33,-162.89,-170.66,-165.79,-157.40,-154.73,-154.73
70.86,-169.49,-169.32,155.14,123.14,-171.16,-171.10,134.98,129.09,-170.62,178.04,-175.63,-171.90,-171.55,-176.07,179.59,-171.00,179.04,-177.35,176.71,175.71,178.40,-178.25,177.33,-169.11,-174.08,-177.36,-169.38,-173.84,178.25,-176.57,-168.38,-165.56,-165.56
71.86,179.18,179.38,143.96,112.27,177.62,177.43,123.56,118.47,178.11,166.31,173.09,176.90,177.20,172.49,167.90,177.48,167.35,171.19,165.01,164.18,166.93,170.29,166.08,-179.68,175.03,171.69,179.26,175.01,167.00,172.48,-179.68,-176.74,-176.74
72.86,167.60,167.75,132.91,102.02,166.14,165.74,112.64,108.34,166.61,154.55,161.64,165.49,165.69,160.87,156.06,165.71,155.58,159.59,153.29,152.60,155.46,158.69,154.77,169.55,163.99,160.63,167.62,163.72,155.64,161.37,168.68,171.69,171.69
73.86,155.93,156.03,122.22,92.49,154.57,153.98,102.32,98.66,155.13,142.92,150.22,153.96,154.08,149.22,144.31,153.84,143.93,147.97,141.78,141.19,144.18,147.10,143.55,158.72,152.92,149.61,155.80,152.35,144.32,150.21,156.82,159.88,159.88
74.85,144.34,144.38,111.98,83.66,143.10,142.36,92.69,89.58,143.79,131.60,138.96,142.57,142.59,137.80,132.84,142.09,132.60,136.57,130.65,130.10,133.23,135.74,132.59,147.93,141.99,138.77,144.03,141.11,133.24,139.20,144.99,148.04,148.04
75.85,133.02,132.98,102.30,75.55,131.88,131.07,83.73,81.16,132.63,120.75,128.03,131.42,131.35,126.71,121.73,130.64,121.71,125.53,119.95,119.42,122.70,124.74,121.99,137.29,131.31,128.22,132.52,130.12,122.55,128.46,133.40,136.39,136.39
76.85,122.11,122.00,93.20,68.09,121.08,120.19,75.44,73.37,121.88,110.47,117.54,120.65,120.52,116.06,111.20,119.61,111.32,115.00,109.77,109.26,112.69,114.21,111.91,126.94,121.01,118.10,121.49,119.52,112.34,118.15,122.24,125.12,125.12
77.85,111.66,111.50,84.65,61.23,110.72,109.73,67.80,66.25,111.58,100.71,107.48,110.34,110.14,105.92,101.23,109.14,101.46,104.99,100.15,99.66,103.20,104.28,102.35,117.05,111.14,108.41,110.93,109.45,102.64,108.28,111.53,114.31,114.31
78.85,101.84,101.60,76.73,54.95,100.95,99.89,60.81,59.88,101.96,91.65,97.97,100.59,100.36,96.43,91.93,99.31,92.25,95.68,91.23,90.72,94.30,94.99,93.41,107.55,101.77,99.31,101.04,99.99,93.55,98.96,101.48,104.10,104.10
79.84,92.71,92.40,69.38,49.14,91.82,90.78,54.35,53.97,92.88,83.24,89.12,91.52,91.22,87.59,83.23,90.17,83.75,87.05,82.87,82.46,85.92,86.32,85.09,98.54,92.94,90.72,91.77,91.14,85.03,90.21,92.07,94.51,94.51
80.84,84.21,83.80,62.60,43.78,83.30,82.32,48.44,48.38,84.52,75.44,81.01,83.11,82.76,79.43,75.27,81.69,75.90,79.07,75.16,74.81,78.13,78.29,77.35,90.03,84.76,82.77,83.18,82.89,77.21,82.11,83.42,85.62,85.62
81.84,76.24,75.80,56.37,38.86,75.35,74.45,42.98,43.27,76.66,68.22,73.52,75.32,74.95,71.91,67.98,73.86,68.66,71.67,68.13,67.75,70.99,70.85,70.22,82.07,77.14,75.41,75.28,75.29,70.03,74.64,75.52,77.47,77.47
82.84,69.04,68.50,50.66,34.31,68.19,67.24,37.94,38.61,69.42,61.66,66.66,68.09,67.67,64.96,61.18,66.63,61.98,64.84,61.71,61.28,64.36,63.99,63.61,74.65,70.10,68.59,68.08,68.37,63.43,67.75,68.24,69.95,69.95
83.84,62.42,61.76,45.39,30.07,61.69,60.68,33.28,34.40,62.77,55.76,60.32,61.49,60.96,58.60,54.95,60.03,55.87,58.56,55.80,55.33,58.35,57.66,57.44,67.75,63.51,62.21,61.49,61.94,57.36,61.40,61.55,63.05,63.05
84.83,56.57,55.98,40.41,26.15,55.94,54.72,28.97,30.53,56.68,50.52,54.55,55.54,54.87,52.85,49.20,54.00,50.18,52.79,50.22,49.96,52.76,51.88,51.86,61.33,57.54,56.38,55.24,55.75,51.67,55.49,55.12,56.54,56.54
